INDEX VERSION 1.131+C:\Users\ramannpr\support_works\devendra spring boot\.metadata\.plugins\org.eclipse.jdt.core
4052862817.index
2363774528.index
751887502.index
2274904547.index
655375146.index
3549324868.index
3901881091.index
822923203.index
1228323271.index
486212650.index
1306806701.index
3878524279.index
3088083868.index
790293785.index
4208017447.index
3751154532.index
2925679001.index
465150192.index
1456010245.index
4238078599.index
3116846752.index
3314676928.index
1281337094.index
4232178577.index
2564154321.index
1020184470.index
575839070.index
785988714.index
3141256530.index
3915658389.index
4020449950.index
2720751595.index
778568628.index
4010566227.index
4072707551.index
3113459258.index
3902746089.index
3447547022.index
2399425340.index
225032474.index
4128725239.index
3880282096.index
2275476630.index
1892195776.index
1843123581.index
1856369856.index
1972697557.index
2915072775.index
2397943341.index
3972787828.index
3163590721.index
2020632996.index
1434590085.index
2809423333.index
106914297.index
2398531443.index
1362710205.index
2112741047.index
2676596651.index
3629067910.index
3196848607.index
1657313049.index
3440093413.index
3880231276.index
2229980189.index
378153073.index
3017227148.index
2335980471.index
3873696353.index
3457050775.index
1028419663.index
3447939360.index
3599578774.index
2568692430.index
332552512.index
3484441794.index
169796881.index
2915718050.index
3695637975.index
2578411941.index
676535794.index
3572692575.index
2099293024.index
1129633148.index
1301585996.index
3261239881.index
1508738211.index
446937105.index
1458409927.index
1495270895.index
2988535940.index
1068494516.index
3664434139.index
26683265.index
2507475985.index
1368622536.index
2986274923.index
3211773916.index
3373731574.index
962547040.index
3423015731.index
2642397326.index
226300725.index
986730341.index
3722966287.index
813966927.index
3723013793.index
2231687035.index
4237426067.index
1788716167.index
172809347.index
656741405.index
1956158391.index
1745886755.index
2996827272.index
1918927979.index
4088453328.index
2963618097.index
814000683.index
2826165369.index
3515129874.index
2204403105.index
2532292776.index
870993433.index
398852022.index
2515198726.index
1098164584.index
890392424.index
3329869171.index
262584783.index
3359857299.index
902432117.index
2080692850.index
362199794.index
4174907092.index
3244034644.index
696938426.index
1650732884.index
1707860295.index
2727134216.index
1428256770.index
2511425907.index
1975972258.index
2832459767.index
1084772038.index
1655230666.index
1810282188.index
3008087201.index
3787286074.index
3511723715.index
3804311065.index
3606698810.index
1582025922.index
3585466628.index
4010656398.index
1912225051.index
3780435684.index
1353222841.index
919331380.index
689552030.index
1423314316.index
4087089178.index
1133951738.index
1487783305.index
2950603888.index
1696494569.index
3292617649.index
3697795078.index
4057192102.index
479192563.index
911245093.index
2138448766.index
1253688453.index
2763765207.index
1158433969.index
2747938833.index
1771447115.index
1225148049.index
3962763584.index
1253441553.index
3090767186.index
2410278499.index
1367400509.index
667067614.index
4170990302.index
1711508044.index
2529736297.index
3662550970.index
2201417538.index
2343436462.index
3139554680.index
2970272929.index
1614806129.index
3395646240.index
1709371982.index
